"File_251217_143931.spc - RawData"
"Wavelength nm.","Abs."
200.00,1.090
201.00,1.092
202.00,1.094
203.00,1.098
204.00,1.101
205.00,1.103
206.00,1.107
207.00,1.111
208.00,1.114
209.00,1.117
210.00,1.121
211.00,1.125
212.00,1.128
213.00,1.132
214.00,1.135
215.00,1.138
216.00,1.141
217.00,1.145
218.00,1.148
219.00,1.150
220.00,1.153
221.00,1.155
222.00,1.157
223.00,1.159
224.00,1.160
225.00,1.161
226.00,1.163
227.00,1.163
228.00,1.164
229.00,1.165
230.00,1.165
231.00,1.166
232.00,1.166
233.00,1.168
234.00,1.169
235.00,1.171
236.00,1.173
237.00,1.174
238.00,1.177
239.00,1.179
240.00,1.181
241.00,1.184
242.00,1.186
243.00,1.188
244.00,1.190
245.00,1.193
246.00,1.195
247.00,1.198
248.00,1.200
249.00,1.203
250.00,1.205
251.00,1.208
252.00,1.210
253.00,1.212
254.00,1.214
255.00,1.217
256.00,1.219
257.00,1.221
258.00,1.223
259.00,1.226
260.00,1.227
261.00,1.230
262.00,1.232
263.00,1.234
264.00,1.236
265.00,1.238
266.00,1.240
267.00,1.243
268.00,1.244
269.00,1.245
270.00,1.247
271.00,1.249
272.00,1.252
273.00,1.253
274.00,1.253
275.00,1.255
276.00,1.257
277.00,1.258
278.00,1.260
279.00,1.261
280.00,1.262
281.00,1.264
282.00,1.265
283.00,1.268
284.00,1.266
285.00,1.268
286.00,1.269
287.00,1.271
288.00,1.272
289.00,1.273
290.00,1.273
291.00,1.275
292.00,1.276
293.00,1.277
294.00,1.278
295.00,1.280
296.00,1.280
297.00,1.281
298.00,1.283
299.00,1.284
300.00,1.285
301.00,1.285
302.00,1.286
303.00,1.289
304.00,1.290
305.00,1.291
306.00,1.295
307.00,1.297
308.00,1.298
309.00,1.300
310.00,1.303
311.00,1.304
312.00,1.302
313.00,1.305
314.00,1.306
315.00,1.308
316.00,1.311
317.00,1.312
318.00,1.314
319.00,1.314
320.00,1.318
321.00,1.324
322.00,1.323
323.00,1.327
324.00,1.330
325.00,1.330
326.00,1.332
327.00,1.332
328.00,1.336
329.00,1.339
330.00,1.338
331.00,1.342
332.00,1.346
333.00,1.345
334.00,1.350
335.00,1.351
336.00,1.352
337.00,1.359
338.00,1.363
339.00,1.364
340.00,1.361
341.00,1.363
342.00,1.364
343.00,1.367
344.00,1.369
345.00,1.372
346.00,1.375
347.00,1.377
348.00,1.381
349.00,1.382
350.00,1.382
351.00,1.384
352.00,1.389
353.00,1.390
354.00,1.390
355.00,1.394
356.00,1.397
357.00,1.399
358.00,1.402
359.00,1.405
360.00,1.407
361.00,1.407
362.00,1.411
363.00,1.417
364.00,1.420
365.00,1.420
366.00,1.422
367.00,1.425
368.00,1.427
369.00,1.431
370.00,1.434
371.00,1.436
372.00,1.441
373.00,1.442
374.00,1.444
375.00,1.447
376.00,1.449
377.00,1.453
378.00,1.456
379.00,1.459
380.00,1.460
381.00,1.465
382.00,1.468
383.00,1.470
384.00,1.472
385.00,1.473
386.00,1.476
387.00,1.478
388.00,1.481
389.00,1.483
390.00,1.486
391.00,1.487
392.00,1.490
393.00,1.491
394.00,1.492
395.00,1.494
396.00,1.497
397.00,1.498
398.00,1.499
399.00,1.501
400.00,1.502
401.00,1.503
402.00,1.503
403.00,1.505
404.00,1.505
405.00,1.506
406.00,1.507
407.00,1.506
408.00,1.508
409.00,1.507
410.00,1.507
411.00,1.508
412.00,1.507
413.00,1.508
414.00,1.507
415.00,1.507
416.00,1.506
417.00,1.505
418.00,1.505
419.00,1.504
420.00,1.502
421.00,1.501
422.00,1.501
423.00,1.499
424.00,1.498
425.00,1.496
426.00,1.494
427.00,1.493
428.00,1.492
429.00,1.489
430.00,1.488
431.00,1.485
432.00,1.483
433.00,1.481
434.00,1.478
435.00,1.476
436.00,1.473
437.00,1.470
438.00,1.467
439.00,1.464
440.00,1.462
441.00,1.459
442.00,1.455
443.00,1.452
444.00,1.449
445.00,1.445
446.00,1.442
447.00,1.439
448.00,1.435
449.00,1.431
450.00,1.428
451.00,1.424
452.00,1.420
453.00,1.417
454.00,1.413
455.00,1.409
456.00,1.405
457.00,1.402
458.00,1.398
459.00,1.394
460.00,1.390
461.00,1.387
462.00,1.383
463.00,1.379
464.00,1.375
465.00,1.372
466.00,1.368
467.00,1.365
468.00,1.361
469.00,1.357
470.00,1.354
471.00,1.350
472.00,1.346
473.00,1.343
474.00,1.339
475.00,1.335
476.00,1.332
477.00,1.329
478.00,1.325
479.00,1.321
480.00,1.318
481.00,1.314
482.00,1.310
483.00,1.307
484.00,1.303
485.00,1.299
486.00,1.296
487.00,1.292
488.00,1.288
489.00,1.284
490.00,1.280
491.00,1.275
492.00,1.271
493.00,1.267
494.00,1.262
495.00,1.257
496.00,1.253
497.00,1.248
498.00,1.243
499.00,1.238
500.00,1.233
501.00,1.228
502.00,1.223
503.00,1.218
504.00,1.213
505.00,1.207
506.00,1.202
507.00,1.197
508.00,1.191
509.00,1.186
510.00,1.180
511.00,1.174
512.00,1.169
513.00,1.163
514.00,1.158
515.00,1.152
516.00,1.147
517.00,1.141
518.00,1.135
519.00,1.129
520.00,1.123
521.00,1.117
522.00,1.112
523.00,1.106
524.00,1.100
525.00,1.094
526.00,1.088
527.00,1.083
528.00,1.077
529.00,1.071
530.00,1.065
531.00,1.059
532.00,1.053
533.00,1.047
534.00,1.041
535.00,1.036
536.00,1.028
537.00,1.021
538.00,1.015
539.00,1.009
540.00,1.003
541.00,0.998
542.00,0.992
543.00,0.986
544.00,0.981
545.00,0.975
546.00,0.969
547.00,0.964
548.00,0.958
549.00,0.953
550.00,0.947
551.00,0.942
552.00,0.936
553.00,0.931
554.00,0.926
555.00,0.920
556.00,0.915
557.00,0.909
558.00,0.904
559.00,0.898
560.00,0.893
561.00,0.888
562.00,0.882
563.00,0.877
564.00,0.871
565.00,0.866
566.00,0.861
567.00,0.855
568.00,0.850
569.00,0.844
570.00,0.839
571.00,0.833
572.00,0.828
573.00,0.823
574.00,0.818
575.00,0.812
576.00,0.807
577.00,0.801
578.00,0.796
579.00,0.790
580.00,0.785
581.00,0.780
582.00,0.775
583.00,0.770
584.00,0.765
585.00,0.759
586.00,0.754
587.00,0.749
588.00,0.744
589.00,0.739
590.00,0.734
591.00,0.729
592.00,0.723
593.00,0.719
594.00,0.714
595.00,0.709
596.00,0.704
597.00,0.699
598.00,0.694
599.00,0.689
600.00,0.685
601.00,0.680
602.00,0.675
603.00,0.671
604.00,0.666
605.00,0.661
606.00,0.657
607.00,0.652
608.00,0.647
609.00,0.643
610.00,0.638
611.00,0.634
612.00,0.629
613.00,0.625
614.00,0.620
615.00,0.616
616.00,0.611
617.00,0.607
618.00,0.602
619.00,0.598
620.00,0.593
621.00,0.589
622.00,0.585
623.00,0.580
624.00,0.576
625.00,0.571
626.00,0.567
627.00,0.563
628.00,0.558
629.00,0.554
630.00,0.550
631.00,0.546
632.00,0.542
633.00,0.537
634.00,0.533
635.00,0.529
636.00,0.525
637.00,0.521
638.00,0.517
639.00,0.513
640.00,0.509
641.00,0.505
642.00,0.501
643.00,0.497
644.00,0.494
645.00,0.490
646.00,0.486
647.00,0.483
648.00,0.479
649.00,0.475
650.00,0.472
651.00,0.468
652.00,0.464
653.00,0.461
654.00,0.457
655.00,0.453
656.00,0.449
657.00,0.446
658.00,0.442
659.00,0.438
660.00,0.435
661.00,0.431
662.00,0.427
663.00,0.424
664.00,0.420
665.00,0.416
666.00,0.412
667.00,0.409
668.00,0.405
669.00,0.402
670.00,0.398
671.00,0.395
672.00,0.391
673.00,0.387
674.00,0.384
675.00,0.380
676.00,0.377
677.00,0.374
678.00,0.370
679.00,0.367
680.00,0.364
681.00,0.360
682.00,0.357
683.00,0.354
684.00,0.350
685.00,0.347
686.00,0.344
687.00,0.341
688.00,0.338
689.00,0.334
690.00,0.331
691.00,0.328
692.00,0.325
693.00,0.322
694.00,0.319
695.00,0.316
696.00,0.313
697.00,0.311
698.00,0.308
699.00,0.305
700.00,0.302
701.00,0.299
702.00,0.296
703.00,0.293
704.00,0.290
705.00,0.288
706.00,0.285
707.00,0.282
708.00,0.279
709.00,0.277
710.00,0.274
711.00,0.271
712.00,0.268
713.00,0.266
714.00,0.263
715.00,0.260
716.00,0.258
717.00,0.255
718.00,0.252
719.00,0.250
720.00,0.247
721.00,0.244
722.00,0.242
723.00,0.239
724.00,0.237
725.00,0.235
726.00,0.232
727.00,0.230
728.00,0.227
729.00,0.225
730.00,0.222
731.00,0.220
732.00,0.218
733.00,0.215
734.00,0.213
735.00,0.211
736.00,0.209
737.00,0.206
738.00,0.204
739.00,0.202
740.00,0.200
741.00,0.198
742.00,0.196
743.00,0.194
744.00,0.191
745.00,0.189
746.00,0.187
747.00,0.185
748.00,0.183
749.00,0.181
750.00,0.179
751.00,0.177
752.00,0.175
753.00,0.173
754.00,0.171
755.00,0.169
756.00,0.167
757.00,0.165
758.00,0.163
759.00,0.161
760.00,0.160
761.00,0.158
762.00,0.156
763.00,0.154
764.00,0.152
765.00,0.150
766.00,0.148
767.00,0.146
768.00,0.144
769.00,0.143
770.00,0.141
771.00,0.139
772.00,0.138
773.00,0.136
774.00,0.134
775.00,0.132
776.00,0.131
777.00,0.129
778.00,0.128
779.00,0.126
780.00,0.124
781.00,0.123
782.00,0.121
783.00,0.120
784.00,0.118
785.00,0.117
786.00,0.115
787.00,0.114
788.00,0.112
789.00,0.111
790.00,0.109
791.00,0.108
792.00,0.106
793.00,0.105
794.00,0.103
795.00,0.102
796.00,0.101
797.00,0.099
798.00,0.098
799.00,0.096
800.00,0.095
801.00,0.094
802.00,0.092
803.00,0.091
804.00,0.090
805.00,0.088
806.00,0.087
807.00,0.086
808.00,0.084
809.00,0.083
810.00,0.082
811.00,0.081
812.00,0.079
813.00,0.078
814.00,0.077
815.00,0.076
816.00,0.075
817.00,0.073
818.00,0.072
819.00,0.071
820.00,0.070
821.00,0.069
822.00,0.068
823.00,0.066
824.00,0.065
825.00,0.064
826.00,0.063
827.00,0.062
828.00,0.061
829.00,0.060
830.00,0.059
831.00,0.058
832.00,0.057
833.00,0.056
834.00,0.055
835.00,0.054
836.00,0.053
837.00,0.052
838.00,0.051
839.00,0.050
840.00,0.049
841.00,0.048
842.00,0.047
843.00,0.046
844.00,0.045
845.00,0.044
846.00,0.043
847.00,0.042
848.00,0.041
849.00,0.040
850.00,0.039
851.00,0.038
852.00,0.037
853.00,0.036
854.00,0.035
855.00,0.034
856.00,0.034
857.00,0.033
858.00,0.032
859.00,0.031
860.00,0.030
861.00,0.029
862.00,0.028
863.00,0.028
864.00,0.027
865.00,0.026
866.00,0.025
867.00,0.024
868.00,0.024
869.00,0.023
870.00,0.022
871.00,0.021
872.00,0.020
873.00,0.020
874.00,0.019
875.00,0.018
876.00,0.018
877.00,0.017
878.00,0.016
879.00,0.015
880.00,0.015
881.00,0.014
882.00,0.013
883.00,0.012
884.00,0.012
885.00,0.011
886.00,0.010
887.00,0.010
888.00,0.009
889.00,0.008
890.00,0.008
891.00,0.007
892.00,0.006
893.00,0.006
894.00,0.005
895.00,0.004
896.00,0.003
897.00,0.003
898.00,0.002
899.00,0.001
900.00,0.001
