"File_251217_150647.spc - RawData"
"Wavelength nm.","Abs."
200.00,0.144
201.00,0.141
202.00,0.138
203.00,0.136
204.00,0.134
205.00,0.133
206.00,0.131
207.00,0.130
208.00,0.129
209.00,0.128
210.00,0.127
211.00,0.126
212.00,0.125
213.00,0.124
214.00,0.124
215.00,0.123
216.00,0.123
217.00,0.122
218.00,0.122
219.00,0.121
220.00,0.121
221.00,0.120
222.00,0.119
223.00,0.118
224.00,0.117
225.00,0.116
226.00,0.115
227.00,0.114
228.00,0.113
229.00,0.111
230.00,0.110
231.00,0.109
232.00,0.108
233.00,0.107
234.00,0.106
235.00,0.105
236.00,0.105
237.00,0.105
238.00,0.104
239.00,0.104
240.00,0.104
241.00,0.104
242.00,0.104
243.00,0.104
244.00,0.104
245.00,0.104
246.00,0.104
247.00,0.104
248.00,0.104
249.00,0.104
250.00,0.104
251.00,0.104
252.00,0.104
253.00,0.104
254.00,0.104
255.00,0.104
256.00,0.104
257.00,0.104
258.00,0.104
259.00,0.104
260.00,0.104
261.00,0.104
262.00,0.104
263.00,0.104
264.00,0.104
265.00,0.104
266.00,0.104
267.00,0.104
268.00,0.104
269.00,0.104
270.00,0.104
271.00,0.104
272.00,0.104
273.00,0.104
274.00,0.104
275.00,0.104
276.00,0.104
277.00,0.104
278.00,0.104
279.00,0.104
280.00,0.104
281.00,0.104
282.00,0.104
283.00,0.104
284.00,0.104
285.00,0.104
286.00,0.104
287.00,0.104
288.00,0.104
289.00,0.104
290.00,0.104
291.00,0.104
292.00,0.104
293.00,0.103
294.00,0.104
295.00,0.103
296.00,0.103
297.00,0.103
298.00,0.103
299.00,0.103
300.00,0.103
301.00,0.103
302.00,0.103
303.00,0.103
304.00,0.103
305.00,0.103
306.00,0.103
307.00,0.103
308.00,0.103
309.00,0.103
310.00,0.103
311.00,0.104
312.00,0.103
313.00,0.104
314.00,0.104
315.00,0.104
316.00,0.104
317.00,0.104
318.00,0.104
319.00,0.104
320.00,0.104
321.00,0.105
322.00,0.105
323.00,0.105
324.00,0.105
325.00,0.105
326.00,0.105
327.00,0.105
328.00,0.106
329.00,0.105
330.00,0.105
331.00,0.106
332.00,0.106
333.00,0.106
334.00,0.106
335.00,0.106
336.00,0.106
337.00,0.106
338.00,0.106
339.00,0.106
340.00,0.106
341.00,0.106
342.00,0.106
343.00,0.106
344.00,0.106
345.00,0.106
346.00,0.106
347.00,0.107
348.00,0.107
349.00,0.107
350.00,0.107
351.00,0.107
352.00,0.107
353.00,0.107
354.00,0.107
355.00,0.107
356.00,0.107
357.00,0.108
358.00,0.108
359.00,0.108
360.00,0.108
361.00,0.108
362.00,0.108
363.00,0.109
364.00,0.109
365.00,0.109
366.00,0.109
367.00,0.109
368.00,0.109
369.00,0.109
370.00,0.109
371.00,0.110
372.00,0.110
373.00,0.110
374.00,0.110
375.00,0.110
376.00,0.110
377.00,0.111
378.00,0.111
379.00,0.111
380.00,0.111
381.00,0.111
382.00,0.111
383.00,0.112
384.00,0.112
385.00,0.112
386.00,0.112
387.00,0.112
388.00,0.112
389.00,0.113
390.00,0.113
391.00,0.113
392.00,0.113
393.00,0.113
394.00,0.113
395.00,0.113
396.00,0.113
397.00,0.113
398.00,0.113
399.00,0.113
400.00,0.114
401.00,0.114
402.00,0.114
403.00,0.114
404.00,0.114
405.00,0.114
406.00,0.114
407.00,0.114
408.00,0.114
409.00,0.114
410.00,0.114
411.00,0.114
412.00,0.114
413.00,0.114
414.00,0.114
415.00,0.114
416.00,0.113
417.00,0.113
418.00,0.113
419.00,0.113
420.00,0.113
421.00,0.113
422.00,0.113
423.00,0.113
424.00,0.113
425.00,0.113
426.00,0.112
427.00,0.112
428.00,0.112
429.00,0.112
430.00,0.112
431.00,0.112
432.00,0.111
433.00,0.111
434.00,0.111
435.00,0.111
436.00,0.111
437.00,0.110
438.00,0.110
439.00,0.110
440.00,0.110
441.00,0.110
442.00,0.109
443.00,0.109
444.00,0.109
445.00,0.108
446.00,0.108
447.00,0.108
448.00,0.108
449.00,0.107
450.00,0.107
451.00,0.107
452.00,0.107
453.00,0.106
454.00,0.106
455.00,0.106
456.00,0.105
457.00,0.105
458.00,0.105
459.00,0.105
460.00,0.104
461.00,0.104
462.00,0.104
463.00,0.103
464.00,0.103
465.00,0.103
466.00,0.103
467.00,0.102
468.00,0.102
469.00,0.102
470.00,0.101
471.00,0.101
472.00,0.101
473.00,0.101
474.00,0.100
475.00,0.100
476.00,0.100
477.00,0.099
478.00,0.099
479.00,0.099
480.00,0.099
481.00,0.098
482.00,0.098
483.00,0.098
484.00,0.098
485.00,0.097
486.00,0.097
487.00,0.097
488.00,0.096
489.00,0.096
490.00,0.096
491.00,0.095
492.00,0.095
493.00,0.095
494.00,0.094
495.00,0.094
496.00,0.094
497.00,0.093
498.00,0.093
499.00,0.093
500.00,0.092
501.00,0.092
502.00,0.092
503.00,0.091
504.00,0.091
505.00,0.090
506.00,0.090
507.00,0.090
508.00,0.089
509.00,0.089
510.00,0.088
511.00,0.088
512.00,0.088
513.00,0.087
514.00,0.087
515.00,0.086
516.00,0.086
517.00,0.085
518.00,0.085
519.00,0.085
520.00,0.084
521.00,0.084
522.00,0.083
523.00,0.083
524.00,0.082
525.00,0.082
526.00,0.082
527.00,0.081
528.00,0.081
529.00,0.080
530.00,0.080
531.00,0.079
532.00,0.079
533.00,0.078
534.00,0.078
535.00,0.078
536.00,0.077
537.00,0.077
538.00,0.076
539.00,0.076
540.00,0.075
541.00,0.075
542.00,0.074
543.00,0.074
544.00,0.074
545.00,0.073
546.00,0.073
547.00,0.072
548.00,0.072
549.00,0.072
550.00,0.071
551.00,0.071
552.00,0.070
553.00,0.070
554.00,0.070
555.00,0.069
556.00,0.069
557.00,0.068
558.00,0.068
559.00,0.068
560.00,0.067
561.00,0.067
562.00,0.066
563.00,0.066
564.00,0.066
565.00,0.065
566.00,0.065
567.00,0.064
568.00,0.064
569.00,0.064
570.00,0.063
571.00,0.063
572.00,0.062
573.00,0.062
574.00,0.062
575.00,0.061
576.00,0.061
577.00,0.060
578.00,0.060
579.00,0.060
580.00,0.059
581.00,0.059
582.00,0.058
583.00,0.058
584.00,0.058
585.00,0.057
586.00,0.057
587.00,0.057
588.00,0.056
589.00,0.056
590.00,0.055
591.00,0.055
592.00,0.055
593.00,0.054
594.00,0.054
595.00,0.054
596.00,0.053
597.00,0.053
598.00,0.053
599.00,0.052
600.00,0.052
601.00,0.052
602.00,0.051
603.00,0.051
604.00,0.050
605.00,0.050
606.00,0.050
607.00,0.049
608.00,0.049
609.00,0.049
610.00,0.048
611.00,0.048
612.00,0.048
613.00,0.047
614.00,0.047
615.00,0.047
616.00,0.046
617.00,0.046
618.00,0.046
619.00,0.045
620.00,0.045
621.00,0.045
622.00,0.044
623.00,0.044
624.00,0.044
625.00,0.043
626.00,0.043
627.00,0.043
628.00,0.043
629.00,0.042
630.00,0.042
631.00,0.042
632.00,0.041
633.00,0.041
634.00,0.041
635.00,0.040
636.00,0.040
637.00,0.040
638.00,0.039
639.00,0.039
640.00,0.039
641.00,0.038
642.00,0.038
643.00,0.038
644.00,0.038
645.00,0.037
646.00,0.037
647.00,0.037
648.00,0.037
649.00,0.036
650.00,0.036
651.00,0.036
652.00,0.036
653.00,0.035
654.00,0.035
655.00,0.035
656.00,0.035
657.00,0.034
658.00,0.034
659.00,0.034
660.00,0.033
661.00,0.033
662.00,0.033
663.00,0.033
664.00,0.032
665.00,0.032
666.00,0.032
667.00,0.032
668.00,0.031
669.00,0.031
670.00,0.031
671.00,0.030
672.00,0.030
673.00,0.030
674.00,0.030
675.00,0.029
676.00,0.029
677.00,0.029
678.00,0.029
679.00,0.028
680.00,0.028
681.00,0.028
682.00,0.028
683.00,0.027
684.00,0.027
685.00,0.027
686.00,0.027
687.00,0.026
688.00,0.026
689.00,0.026
690.00,0.026
691.00,0.025
692.00,0.025
693.00,0.025
694.00,0.025
695.00,0.025
696.00,0.024
697.00,0.024
698.00,0.024
699.00,0.024
700.00,0.023
701.00,0.023
702.00,0.023
703.00,0.023
704.00,0.023
705.00,0.022
706.00,0.022
707.00,0.022
708.00,0.022
709.00,0.021
710.00,0.021
711.00,0.021
712.00,0.021
713.00,0.021
714.00,0.020
715.00,0.020
716.00,0.020
717.00,0.020
718.00,0.020
719.00,0.019
720.00,0.019
721.00,0.019
722.00,0.019
723.00,0.019
724.00,0.019
725.00,0.018
726.00,0.018
727.00,0.018
728.00,0.018
729.00,0.018
730.00,0.017
731.00,0.017
732.00,0.017
733.00,0.017
734.00,0.017
735.00,0.017
736.00,0.016
737.00,0.016
738.00,0.016
739.00,0.016
740.00,0.016
741.00,0.016
742.00,0.016
743.00,0.015
744.00,0.015
745.00,0.015
746.00,0.015
747.00,0.015
748.00,0.015
749.00,0.014
750.00,0.014
751.00,0.014
752.00,0.014
753.00,0.014
754.00,0.014
755.00,0.013
756.00,0.013
757.00,0.013
758.00,0.013
759.00,0.013
760.00,0.013
761.00,0.013
762.00,0.012
763.00,0.012
764.00,0.012
765.00,0.012
766.00,0.012
767.00,0.012
768.00,0.012
769.00,0.012
770.00,0.011
771.00,0.011
772.00,0.011
773.00,0.011
774.00,0.011
775.00,0.011
776.00,0.011
777.00,0.010
778.00,0.010
779.00,0.010
780.00,0.010
781.00,0.010
782.00,0.010
783.00,0.010
784.00,0.010
785.00,0.009
786.00,0.009
787.00,0.009
788.00,0.009
789.00,0.009
790.00,0.009
791.00,0.009
792.00,0.009
793.00,0.009
794.00,0.008
795.00,0.008
796.00,0.008
797.00,0.008
798.00,0.008
799.00,0.008
800.00,0.008
801.00,0.008
802.00,0.007
803.00,0.007
804.00,0.007
805.00,0.007
806.00,0.007
807.00,0.007
808.00,0.007
809.00,0.007
810.00,0.007
811.00,0.007
812.00,0.006
813.00,0.006
814.00,0.006
815.00,0.006
816.00,0.006
817.00,0.006
818.00,0.006
819.00,0.006
820.00,0.006
821.00,0.006
822.00,0.006
823.00,0.006
824.00,0.005
825.00,0.005
826.00,0.005
827.00,0.005
828.00,0.005
829.00,0.005
830.00,0.005
831.00,0.005
832.00,0.005
833.00,0.005
834.00,0.005
835.00,0.005
836.00,0.005
837.00,0.004
838.00,0.004
839.00,0.004
840.00,0.004
841.00,0.004
842.00,0.004
843.00,0.004
844.00,0.004
845.00,0.004
846.00,0.004
847.00,0.003
848.00,0.004
849.00,0.003
850.00,0.003
851.00,0.003
852.00,0.003
853.00,0.003
854.00,0.003
855.00,0.003
856.00,0.003
857.00,0.003
858.00,0.003
859.00,0.003
860.00,0.002
861.00,0.002
862.00,0.002
863.00,0.002
864.00,0.002
865.00,0.002
866.00,0.002
867.00,0.002
868.00,0.002
869.00,0.002
870.00,0.002
871.00,0.002
872.00,0.002
873.00,0.002
874.00,0.002
875.00,0.001
876.00,0.001
877.00,0.001
878.00,0.001
879.00,0.001
880.00,0.001
881.00,0.001
882.00,0.001
883.00,0.001
884.00,0.001
885.00,0.001
886.00,0.001
887.00,0.001
888.00,0.001
889.00,0.001
890.00,0.001
891.00,0.001
892.00,0.001
893.00,0.001
894.00,0.001
895.00,0.001
896.00,0.001
897.00,0.001
898.00,0.001
899.00,0.001
900.00,0.001
