"File_251217_143205.spc - RawData"
"Wavelength nm.","Abs."
200.00,1.081
201.00,1.082
202.00,1.085
203.00,1.087
204.00,1.091
205.00,1.094
206.00,1.099
207.00,1.103
208.00,1.107
209.00,1.110
210.00,1.114
211.00,1.119
212.00,1.122
213.00,1.126
214.00,1.130
215.00,1.134
216.00,1.137
217.00,1.140
218.00,1.143
219.00,1.147
220.00,1.149
221.00,1.152
222.00,1.154
223.00,1.156
224.00,1.157
225.00,1.158
226.00,1.160
227.00,1.161
228.00,1.162
229.00,1.163
230.00,1.163
231.00,1.164
232.00,1.165
233.00,1.166
234.00,1.168
235.00,1.169
236.00,1.171
237.00,1.173
238.00,1.175
239.00,1.177
240.00,1.180
241.00,1.182
242.00,1.184
243.00,1.187
244.00,1.189
245.00,1.192
246.00,1.194
247.00,1.197
248.00,1.199
249.00,1.201
250.00,1.204
251.00,1.207
252.00,1.209
253.00,1.212
254.00,1.214
255.00,1.216
256.00,1.219
257.00,1.221
258.00,1.222
259.00,1.226
260.00,1.228
261.00,1.230
262.00,1.232
263.00,1.234
264.00,1.236
265.00,1.237
266.00,1.240
267.00,1.242
268.00,1.243
269.00,1.246
270.00,1.247
271.00,1.248
272.00,1.250
273.00,1.252
274.00,1.252
275.00,1.254
276.00,1.257
277.00,1.257
278.00,1.259
279.00,1.261
280.00,1.261
281.00,1.264
282.00,1.263
283.00,1.265
284.00,1.268
285.00,1.267
286.00,1.269
287.00,1.270
288.00,1.272
289.00,1.273
290.00,1.275
291.00,1.275
292.00,1.277
293.00,1.277
294.00,1.279
295.00,1.280
296.00,1.282
297.00,1.283
298.00,1.284
299.00,1.285
300.00,1.286
301.00,1.288
302.00,1.288
303.00,1.291
304.00,1.291
305.00,1.291
306.00,1.296
307.00,1.296
308.00,1.298
309.00,1.298
310.00,1.302
311.00,1.303
312.00,1.304
313.00,1.305
314.00,1.307
315.00,1.308
316.00,1.312
317.00,1.313
318.00,1.316
319.00,1.318
320.00,1.320
321.00,1.321
322.00,1.322
323.00,1.328
324.00,1.325
325.00,1.327
326.00,1.333
327.00,1.337
328.00,1.335
329.00,1.338
330.00,1.341
331.00,1.343
332.00,1.348
333.00,1.349
334.00,1.352
335.00,1.354
336.00,1.353
337.00,1.359
338.00,1.359
339.00,1.359
340.00,1.361
341.00,1.362
342.00,1.366
343.00,1.367
344.00,1.369
345.00,1.372
346.00,1.372
347.00,1.377
348.00,1.378
349.00,1.379
350.00,1.383
351.00,1.387
352.00,1.388
353.00,1.391
354.00,1.391
355.00,1.395
356.00,1.398
357.00,1.400
358.00,1.403
359.00,1.405
360.00,1.407
361.00,1.407
362.00,1.415
363.00,1.418
364.00,1.420
365.00,1.423
366.00,1.424
367.00,1.426
368.00,1.430
369.00,1.431
370.00,1.433
371.00,1.436
372.00,1.440
373.00,1.444
374.00,1.445
375.00,1.448
376.00,1.451
377.00,1.453
378.00,1.456
379.00,1.459
380.00,1.460
381.00,1.465
382.00,1.467
383.00,1.470
384.00,1.472
385.00,1.475
386.00,1.477
387.00,1.480
388.00,1.481
389.00,1.484
390.00,1.486
391.00,1.488
392.00,1.490
393.00,1.491
394.00,1.493
395.00,1.495
396.00,1.497
397.00,1.498
398.00,1.500
399.00,1.501
400.00,1.502
401.00,1.503
402.00,1.505
403.00,1.506
404.00,1.505
405.00,1.506
406.00,1.507
407.00,1.507
408.00,1.508
409.00,1.508
410.00,1.508
411.00,1.508
412.00,1.509
413.00,1.508
414.00,1.507
415.00,1.508
416.00,1.507
417.00,1.506
418.00,1.505
419.00,1.505
420.00,1.503
421.00,1.501
422.00,1.501
423.00,1.499
424.00,1.498
425.00,1.497
426.00,1.495
427.00,1.493
428.00,1.492
429.00,1.490
430.00,1.488
431.00,1.486
432.00,1.484
433.00,1.481
434.00,1.479
435.00,1.477
436.00,1.474
437.00,1.471
438.00,1.468
439.00,1.465
440.00,1.463
441.00,1.459
442.00,1.456
443.00,1.453
444.00,1.450
445.00,1.446
446.00,1.443
447.00,1.439
448.00,1.436
449.00,1.432
450.00,1.428
451.00,1.425
452.00,1.421
453.00,1.417
454.00,1.414
455.00,1.410
456.00,1.406
457.00,1.403
458.00,1.399
459.00,1.395
460.00,1.392
461.00,1.388
462.00,1.384
463.00,1.380
464.00,1.376
465.00,1.373
466.00,1.369
467.00,1.366
468.00,1.362
469.00,1.358
470.00,1.355
471.00,1.351
472.00,1.347
473.00,1.344
474.00,1.340
475.00,1.336
476.00,1.333
477.00,1.329
478.00,1.326
479.00,1.322
480.00,1.319
481.00,1.315
482.00,1.311
483.00,1.308
484.00,1.304
485.00,1.300
486.00,1.296
487.00,1.293
488.00,1.289
489.00,1.285
490.00,1.280
491.00,1.276
492.00,1.272
493.00,1.267
494.00,1.263
495.00,1.258
496.00,1.253
497.00,1.249
498.00,1.244
499.00,1.239
500.00,1.234
501.00,1.229
502.00,1.224
503.00,1.219
504.00,1.213
505.00,1.208
506.00,1.203
507.00,1.198
508.00,1.192
509.00,1.187
510.00,1.181
511.00,1.175
512.00,1.170
513.00,1.164
514.00,1.159
515.00,1.153
516.00,1.148
517.00,1.142
518.00,1.136
519.00,1.130
520.00,1.124
521.00,1.118
522.00,1.113
523.00,1.107
524.00,1.101
525.00,1.095
526.00,1.089
527.00,1.083
528.00,1.077
529.00,1.071
530.00,1.065
531.00,1.060
532.00,1.054
533.00,1.048
534.00,1.042
535.00,1.036
536.00,1.029
537.00,1.022
538.00,1.016
539.00,1.010
540.00,1.004
541.00,0.998
542.00,0.993
543.00,0.987
544.00,0.981
545.00,0.976
546.00,0.970
547.00,0.964
548.00,0.959
549.00,0.953
550.00,0.948
551.00,0.942
552.00,0.937
553.00,0.932
554.00,0.926
555.00,0.921
556.00,0.915
557.00,0.910
558.00,0.904
559.00,0.899
560.00,0.893
561.00,0.888
562.00,0.883
563.00,0.877
564.00,0.872
565.00,0.867
566.00,0.861
567.00,0.856
568.00,0.850
569.00,0.845
570.00,0.839
571.00,0.834
572.00,0.828
573.00,0.823
574.00,0.818
575.00,0.813
576.00,0.807
577.00,0.801
578.00,0.796
579.00,0.791
580.00,0.786
581.00,0.780
582.00,0.775
583.00,0.770
584.00,0.765
585.00,0.760
586.00,0.755
587.00,0.749
588.00,0.744
589.00,0.739
590.00,0.734
591.00,0.729
592.00,0.724
593.00,0.719
594.00,0.714
595.00,0.709
596.00,0.704
597.00,0.699
598.00,0.694
599.00,0.690
600.00,0.685
601.00,0.680
602.00,0.676
603.00,0.671
604.00,0.666
605.00,0.661
606.00,0.657
607.00,0.652
608.00,0.647
609.00,0.643
610.00,0.638
611.00,0.634
612.00,0.629
613.00,0.625
614.00,0.620
615.00,0.616
616.00,0.611
617.00,0.606
618.00,0.602
619.00,0.598
620.00,0.593
621.00,0.589
622.00,0.585
623.00,0.580
624.00,0.576
625.00,0.571
626.00,0.567
627.00,0.562
628.00,0.558
629.00,0.554
630.00,0.550
631.00,0.546
632.00,0.541
633.00,0.537
634.00,0.533
635.00,0.529
636.00,0.524
637.00,0.520
638.00,0.516
639.00,0.513
640.00,0.509
641.00,0.505
642.00,0.501
643.00,0.497
644.00,0.493
645.00,0.490
646.00,0.486
647.00,0.482
648.00,0.479
649.00,0.475
650.00,0.471
651.00,0.468
652.00,0.464
653.00,0.460
654.00,0.456
655.00,0.453
656.00,0.449
657.00,0.445
658.00,0.441
659.00,0.438
660.00,0.434
661.00,0.430
662.00,0.427
663.00,0.423
664.00,0.419
665.00,0.416
666.00,0.412
667.00,0.408
668.00,0.405
669.00,0.401
670.00,0.398
671.00,0.394
672.00,0.390
673.00,0.387
674.00,0.383
675.00,0.380
676.00,0.376
677.00,0.373
678.00,0.370
679.00,0.366
680.00,0.363
681.00,0.360
682.00,0.356
683.00,0.353
684.00,0.350
685.00,0.346
686.00,0.343
687.00,0.340
688.00,0.337
689.00,0.334
690.00,0.331
691.00,0.328
692.00,0.324
693.00,0.322
694.00,0.319
695.00,0.316
696.00,0.313
697.00,0.310
698.00,0.307
699.00,0.304
700.00,0.301
701.00,0.298
702.00,0.295
703.00,0.293
704.00,0.290
705.00,0.287
706.00,0.284
707.00,0.281
708.00,0.279
709.00,0.276
710.00,0.273
711.00,0.270
712.00,0.267
713.00,0.265
714.00,0.262
715.00,0.259
716.00,0.257
717.00,0.254
718.00,0.251
719.00,0.249
720.00,0.246
721.00,0.244
722.00,0.241
723.00,0.239
724.00,0.236
725.00,0.234
726.00,0.231
727.00,0.229
728.00,0.226
729.00,0.224
730.00,0.222
731.00,0.219
732.00,0.217
733.00,0.215
734.00,0.212
735.00,0.210
736.00,0.208
737.00,0.205
738.00,0.203
739.00,0.201
740.00,0.199
741.00,0.197
742.00,0.195
743.00,0.193
744.00,0.191
745.00,0.188
746.00,0.186
747.00,0.184
748.00,0.182
749.00,0.180
750.00,0.178
751.00,0.176
752.00,0.174
753.00,0.172
754.00,0.170
755.00,0.168
756.00,0.166
757.00,0.164
758.00,0.162
759.00,0.160
760.00,0.159
761.00,0.157
762.00,0.155
763.00,0.153
764.00,0.151
765.00,0.149
766.00,0.147
767.00,0.145
768.00,0.144
769.00,0.142
770.00,0.140
771.00,0.138
772.00,0.137
773.00,0.135
774.00,0.133
775.00,0.132
776.00,0.130
777.00,0.128
778.00,0.127
779.00,0.125
780.00,0.123
781.00,0.122
782.00,0.120
783.00,0.119
784.00,0.117
785.00,0.116
786.00,0.114
787.00,0.113
788.00,0.111
789.00,0.110
790.00,0.108
791.00,0.107
792.00,0.105
793.00,0.104
794.00,0.103
795.00,0.101
796.00,0.100
797.00,0.098
798.00,0.097
799.00,0.096
800.00,0.094
801.00,0.093
802.00,0.091
803.00,0.090
804.00,0.089
805.00,0.087
806.00,0.086
807.00,0.085
808.00,0.084
809.00,0.082
810.00,0.081
811.00,0.080
812.00,0.078
813.00,0.077
814.00,0.076
815.00,0.075
816.00,0.074
817.00,0.072
818.00,0.071
819.00,0.070
820.00,0.069
821.00,0.068
822.00,0.066
823.00,0.065
824.00,0.064
825.00,0.063
826.00,0.062
827.00,0.061
828.00,0.060
829.00,0.059
830.00,0.058
831.00,0.057
832.00,0.056
833.00,0.055
834.00,0.054
835.00,0.053
836.00,0.052
837.00,0.051
838.00,0.049
839.00,0.049
840.00,0.047
841.00,0.046
842.00,0.046
843.00,0.045
844.00,0.044
845.00,0.043
846.00,0.042
847.00,0.041
848.00,0.040
849.00,0.039
850.00,0.038
851.00,0.037
852.00,0.036
853.00,0.035
854.00,0.034
855.00,0.033
856.00,0.032
857.00,0.031
858.00,0.031
859.00,0.030
860.00,0.029
861.00,0.028
862.00,0.027
863.00,0.026
864.00,0.026
865.00,0.025
866.00,0.024
867.00,0.023
868.00,0.022
869.00,0.022
870.00,0.021
871.00,0.020
872.00,0.019
873.00,0.018
874.00,0.018
875.00,0.017
876.00,0.016
877.00,0.015
878.00,0.015
879.00,0.014
880.00,0.013
881.00,0.013
882.00,0.012
883.00,0.011
884.00,0.011
885.00,0.010
886.00,0.009
887.00,0.008
888.00,0.008
889.00,0.007
890.00,0.006
891.00,0.006
892.00,0.005
893.00,0.004
894.00,0.004
895.00,0.003
896.00,0.003
897.00,0.002
898.00,0.001
899.00,0.001
900.00,0.000
